s_abs,Reference κ(s) integral,Polyline-κ baseline,Chord–Sagitta baseline (const κ)
0.0,0.0,0.0,0.0
0.1378597028114239,-0.5421116455689912,0.40746003811657383,0.35229013932773096
0.2757194056228478,-1.114659077607303,0.9813483180542905,0.7045802786554619
0.4135791084342717,-1.719423680247032,1.5843593153721887,1.056870417983193
0.5514388112456956,-2.357945582798686,2.223441752877935,1.4091605573109238
0.6892985140571195,-3.0316705130907824,2.898800437519543,1.7614506966386547
0.8271582168685434,-3.741488128595775,3.608706063561273,2.113740835966386
0.9650179196799673,-4.4875067065712315,4.3530845180526665,2.4660309752941165
1.1028776224913912,-5.269212806977656,5.135527745865253,2.8183211146218476
1.240737325302815,-6.084383343518478,5.949728011298002,3.1706112539495788
1.378597028114239,-6.929030935696845,6.794767882967375,3.5229013932773094
1.516456730925663,-7.796626192041907,7.659890299895504,3.8751915326050406
1.6543164337370868,-8.677047982242867,8.539567694486475,4.227481671932772
1.7921761365485107,-9.555927168393303,9.416468351677938,4.579771811260502
1.9300358393599346,-10.413570283271088,10.270673689582393,4.932061950588233
2.0678955421713585,-11.224079792144494,11.077678750184463,5.284352089915965
2.2057552449827824,-11.954826533412012,11.804214058581346,5.636642229243695
2.3436149477942063,-12.567364545177119,12.412640218900329,5.988932368571426
2.48147465060563,-13.034638309721839,12.898618420653722,6.3412225078991575
2.619334353417054,-13.493352086557449,13.359463179338901,6.693512647226888
2.757194056228478,-13.982283451977631,13.84802689526038,7.045802786554619
2.895053759039902,-14.497078272207263,14.362114914544163,7.3980929258823505
3.032913461851326,-15.031454268660317,14.895565980685515,7.750383065210081
3.1707731646627497,-15.57701511225463,15.439928471784956,8.102673204537812
3.3086328674741736,-16.12361736893744,15.985238105246571,8.454963343865543
3.4464925702855975,-16.66000563892873,16.520229366330764,8.807253483193273
3.5843522730970214,-17.17467140869451,17.033760211357887,9.159543622521005
3.7222119759084453,-17.656964979195468,17.5147712316011,9.511833761848736
3.8600716787198692,-18.097860660481196,17.95511332272024,9.864123901176466
3.997931381531293,-18.49093631491843,18.34840264099819,10.216414040504198
4.135791084342717,-18.841065770625768,18.70118530072732,10.56870417983193
4.273650787154141,-19.167912942187037,19.028632324531845,10.920994319159659
4.411510489965565,-19.47660405978609,19.337725623554682,11.27328445848739
4.549370192776989,-19.77096186420409,19.632466717952067,11.625574597815122
4.687229895588413,-20.054236066294862,19.91610582345443,11.977864737142852
4.8250895983998365,-20.32925259434678,20.191316335598096,12.330154876470584
4.96294930121126,-20.59861802701752,20.461149125391056,12.682445015798315
5.100809004022684,-20.86474278281697,20.72742023524483,13.034735155126045
5.238668706834108,-21.129985639356207,20.99300669046413,13.387025294453776
5.376528409645532,-21.396728548015407,21.260063830506333,13.739315433781508
5.514388112456956,-21.66748334780987,21.531149261481477,14.091605573109238
5.65224781526838,-21.944997948221907,21.81133966875942,14.44389571243697
5.790107518079804,-22.253218938534033,22.124099835502996,14.796185851764701
5.927967220891228,-22.62597755548194,22.496922154849827,15.14847599109243
6.065826923702652,-23.06355133478047,22.93424577526096,15.500766130420162
6.2036866265140755,-23.56413858608309,23.43442052105454,15.853056269747894
6.341546329325499,-24.12395247339518,23.993477708688715,16.205346409075624
6.479406032136923,-24.737568963748966,24.606407629814097,16.557636548403355
6.617265734948347,-25.398106151204455,25.265810644564187,16.909926687731087
6.755125437759771,-26.09732363281147,25.963956791661495,17.26221682705882
6.892985140571195,-26.82623071920381,26.691708502771238,17.614506966386546
7.030844843382619,-27.57551272742064,27.4397521075508,17.966797105714278
7.168704546194043,-28.335953210648842,28.198532727489145,18.31908724504201
7.306564249005467,-29.090013752361706,28.939967406263918,18.67137738436974
7.444423951816891,-29.752762695904874,29.602575454222933,19.023667523697473
7.5822836546283146,-30.312167799600985,30.16258184946903,19.375957663025204
7.7201433574397385,-30.77690312215396,30.628586451043713,19.728247802352932
7.858003060251162,-31.154914511517262,31.00755963416292,20.080537941680664
7.995862763062586,-31.45319615318575,31.306639513180933,20.432828081008395
8.13372246587401,-31.67805371850462,31.532244640660636,20.785118220336127
8.271582168685434,-31.835145528017108,31.68974355198411,21.13740835966386
8.409441871496858,-31.92933880706616,31.78458049107752,21.48969849899159
8.547301574308282,-31.965440806438014,31.821136692022556,21.841988638319318
8.685161277119706,-31.947225794585773,31.803433597982263,22.19427877764705
8.82302097993113,-31.878557290810633,31.735175317879396,22.54656891697478
8.960880682742554,-31.762699812703527,31.620036327983833,22.898859056302513
9.098740385553977,-31.607028717497148,31.474344908714375,23.251149195630244
9.236600088365401,-31.478333278137054,31.347240932779687,23.603439334957972
9.374459791176825,-31.39636481719058,31.264933780199694,23.955729474285704
9.51231949398825,-31.35858616637653,31.226948584302143,24.308019613613435
9.650179196799673,-31.363254546532108,31.231521813548113,24.660309752941167
9.788038899611097,-31.409399262918004,31.277625016576494,25.0125998922689
9.92589860242252,-31.496648693033872,31.36491054184411,25.36489003159663
10.063758305233945,-31.625160103806195,31.49351510377875,25.717180170924358
10.201618008045369,-31.795782121301716,31.66441770300663,26.06947031025209
10.339477710856793,-32.010121690506516,31.878998879161077,26.42176044957982
10.477337413668216,-32.2702576723034,32.139537684581946,26.774050588907553
10.61519711647964,-32.57909498045147,32.44882877321684,27.126340728235284
10.753056819291064,-32.94043646719537,32.81078229398307,27.478630867563016
10.890916522102488,-33.359103698338885,33.230321149690205,27.830921006890744
11.028776224913912,-33.841135443802486,33.71133407137954,28.183211146218476
11.166635927725336,-34.375081430578604,34.24033680245835,28.535501285546207
11.30449563053676,-34.92832021883715,34.793464734650634,28.88779142487394
11.442355333348184,-35.49863997790117,35.363325932845534,29.24008156420167
11.580215036159608,-36.08432228055522,35.94916931894501,29.592371703529402
11.718074738971032,-36.68337238767639,36.54729320523184,29.94466184285713
11.855934441782455,-37.29344336760324,37.157588307990814,30.29695198218486
11.99379414459388,-37.91194393949777,37.77571374429688,30.649242121512593
12.131653847405303,-38.535983834695195,38.39901206919335,31.001532260840325
12.269513550216727,-39.16248960823458,39.02494194225367,31.353822400168056
12.407373253028151,-39.78824780245163,39.650246767320105,31.706112539495788
12.545232955839575,-40.40997263455859,40.27190439698376,32.05840267882352
12.683092658650999,-41.02438324060791,40.88603274983376,32.41069281815125
12.820952361462423,-41.62828182425161,41.488944470267306,32.76298295747898
12.958812064273847,-42.21285917080734,42.069788703881166,33.11527309680671
13.09667176708527,-42.75442443854342,42.61141686735636,33.46756323613444
13.234531469896694,-43.252976095788995,43.110171572299755,33.81985337546217
13.372391172708118,-43.71064288211555,43.56802073245624,34.1721435147899
13.510250875519542,-44.12915353411787,43.986723022490054,34.52443365411764
13.648110578330966,-44.50985420734448,44.36771947750513,34.876723793445365
13.78597028114239,-44.85371667731401,44.711711971585444,35.22901393277309
13.923829983953814,-45.16133693503011,45.01928322348472,35.58130407210083
14.061689686765238,-45.43292324712216,45.29084573751973,35.933594211428556
14.199549389576662,-45.66827222761007,45.52621507829972,36.28588435075629
14.337409092388086,-45.86673077961567,45.72443099132287,36.63817449008402
14.47526879519951,-46.027042209965934,45.88440597885061,36.99046462941175
14.613128498010933,-46.14748264528406,46.008356304937905,37.34275476873948
14.750988200822357,-46.25788270587873,46.12606806339278,37.69504490806721
14.888847903633781,-46.40858239940422,46.27711520175913,38.047335047394945
15.026707606445205,-46.60207468897306,46.4707948892622,38.39962518672267
15.164567309256629,-46.83945966597486,46.708211787429434,38.75191532605041
15.302427012068053,-47.121035474111515,46.98969543452169,39.104205465378136
15.440286714879477,-47.44626266691711,47.314716784711,39.456495604705864
15.5781464176909,-47.81367183258358,47.68185797837864,39.8087857440336
15.716006120502325,-48.22082712022013,48.088548837313404,40.16107588336133
15.853865823313749,-48.66444831641282,48.531582119177614,40.51336602268906
15.991725526125173,-49.14049708151223,49.006998417884574,40.86565616201679
16.129585228936598,-49.64432556891526,49.51010176469497,41.21794630134452
16.26744493174802,-50.16963327745123,50.03091243949346,41.570236440672254
16.405304634559442,-50.68570390786922,50.545880332985924,41.92252657999998
16.543164337370868,-51.181756373797676,51.042042249601764,42.27481671932772
16.681024040182294,-51.65891878409323,51.519414396650205,42.627106858655445
16.818883742993716,-52.118211520152656,51.97870484549724,42.97939699798318
16.956743445805138,-52.56061208528301,52.42142114659823,43.33168713731091
17.094603148616564,-52.98703971177263,52.8476734353982,43.683977276638636
17.23246285142799,-53.39829995004972,53.25938207931976,44.03626741596637
17.37032255423941,-53.79520166396102,53.65620704977843,44.3885575552941
17.508182257050834,-54.17847767961394,54.03934776155925,44.740847694621834
17.64604195986226,-54.54877219260306,54.40997761583958,45.09313783394956
17.783901662673685,-54.90675331073382,54.76815147130001,45.44542797327729
17.921761365485107,-55.252966443966315,55.11310164050242,45.797718112605025
18.05962106829653,-55.57871080014294,55.43790706303623,46.15000825193275
18.197480771107955,-55.876908743014994,55.73613575008426,46.50229839126049
18.33534047391938,-56.14808891530347,56.00735026171053,46.85458853058822
18.473200176730803,-56.39285508868189,56.252205924714055,47.206878669915945
18.611059879542225,-56.61187585490996,56.47151150069809,47.55916880924368
18.74891958235365,-56.80587471169745,56.665532297497435,47.91145894857141
18.886779285165076,-56.975553093310765,56.83518408536695,48.26374908789914
19.0246389879765,-57.12175935120906,56.98165127553546,48.61603922722687
19.16249869078792,-57.24531569401757,57.10522163546555,48.968329366554606
19.300358393599346,-57.34700396182037,57.207085732250725,49.320619505882334
19.438218096410772,-57.427732531207766,57.28789001563122,49.67290964521006
19.576077799222194,-57.4883323835459,57.348602874128844,50.0251997845378
19.713937502033616,-57.52963920509692,57.39268076681227,50.377489923865525
19.85179720484504,-57.5787732659561,57.44881268800658,50.72978006319326
19.989656907656467,-57.68443903147768,57.55441469950675,51.08207020252099
20.12751661046789,-57.84649923603079,57.716389060098486,51.434360341848716
20.26537631327931,-58.064320339950655,57.93423132000412,51.78665048117645
20.403236016090737,-58.3380414030744,58.20806636933705,52.13894062050418
20.541095718902163,-58.668544161952774,58.53876733114355,52.491230759831915
20.678955421713585,-59.05744792330727,58.927951892947064,52.84352089915964
20.816815124525007,-59.50712753492468,59.3779960638882,53.19581103848738
20.954674827336433,-60.02075376258316,59.892135223536556,53.548101177815106
21.09253453014786,-60.6023562763697,60.47447373231136,53.900391317142834
21.23039423295928,-61.257037885066694,61.12985162060255,54.25268145647057
21.368253935770703,-61.99078617429138,61.864118865793685,54.6049715957983
21.50611363858213,-62.81085946327061,62.68560661596383,54.95726173512603
21.643973341393554,-63.72588844036161,63.596560509453944,55.30955187445376
21.781833044204976,-64.6876022230797,64.54072184748986,55.66184201378149
21.9196927470164,-65.57257311962658,65.42468204689176,56.01413215310922
22.057552449827824,-66.37273189802602,66.22501817381868,56.36642229243695
22.19541215263925,-67.08398524286808,66.93521203858383,56.718712431764686
22.333271855450672,-67.70062658302801,67.55088576517736,57.071002571092414
22.471131558262094,-68.21520297500443,68.06412384704409,57.42329271042014
22.60899126107352,-68.61775559425246,68.46535760734423,57.77558284974788
22.746850963884945,-68.89503299122467,68.74050143217997,58.127872989075605
22.884710666696368,-69.02913751384965,68.87177180870452,58.48016312840334
23.02257036950779,-68.99575480436805,68.83423294313548,58.83245326773107
23.160430072319215,-68.76039446379316,68.5933446710831,59.184743407058804
23.29828977513064,-68.27504865788619,68.10487545319631,59.53703354638653
23.436149477942063,-67.54343527487177,67.40525789643887,59.88932368571426
23.574009180753485,-66.7943569888538,66.66254671021333,60.241613825041995
23.71186888356491,-66.09178322915164,65.96549504123496,60.59390396436972
23.849728586376337,-65.48351441014388,65.3623273545654,60.94619410369746
23.98758828918776,-65.01056797732444,64.8920488217586,61.298484243025186
24.12544799199918,-64.6967965258652,64.57835244617486,61.650774382352914
24.263307694810607,-64.54366245629362,64.42324642172021,62.00306452168065
24.401167397622032,-64.53374089588218,64.40991947748405,62.35535466100838
24.539027100433454,-64.63845782783721,64.51092260685117,62.70764480033611
24.676886803244876,-64.82621831759627,64.7029370073577,63.05993493966384
24.814746506056302,-65.15101134140174,65.03788570515333,63.412225078991575
24.952606208867728,-65.68373841087947,65.55872343578928,63.7645152183193
25.09046591167915,-66.32095392961891,66.18773853063792,64.11680535764704
25.228325614490572,-66.98744192998859,66.84859551407783,64.46909549697476
25.366185317301998,-67.6387227438802,67.49771671291046,64.8213856363025
25.504045020113423,-68.25203043428013,68.11050405264339,65.17367577563023
25.641904722924846,-68.81826097943109,68.67621443280593,65.52596591495796
25.779764425736268,-69.33542482468818,69.19295968688728,65.87825605428569
25.917624128547693,-69.80575772509376,69.66436635626064,66.23054619361342
26.05548383135912,-70.23264259265733,70.09169965636646,66.58283633294116
26.19334353417054,-70.62033298033714,70.48025502113447,66.93512647226888
26.331203236981963,-70.9733111223867,70.83296116303755,67.28741661159661
26.46906293979339,-71.29526936919113,71.15561184255635,67.63970675092435
26.606922642604815,-71.58969557450006,71.45036486709456,67.99199689025207
26.744782345416237,-71.85985689252496,71.72078607008939,68.3442870295798
26.88264204822766,-72.10863114839819,71.96924495755992,68.69657716890754
27.020501751039085,-72.33818198246583,72.20010195513456,69.04886730823527
27.15836145385051,-72.55069093583823,72.4122910646172,69.401157447563
27.296221156661932,-72.74802367040498,72.60915792659567,69.75344758689073
27.434080859473355,-72.93177379066894,72.74874828417052,70.10573772621846
