s_abs,Reference κ(s) integral,Polyline-κ baseline,Chord–Sagitta baseline (const κ)
0.0,0.0,0.0,0.0
0.1665640094350541,-0.6201321371181929,0.46901093708127045,0.43359925415017075
0.3331280188701082,-1.2749194582360566,1.123253891072389,0.8671985083003415
0.49969202830516224,-1.9658777081658743,1.8152050091812768,1.3007977624505123
0.6662560377402164,-2.694559599766274,2.543578058776859,1.734397016600683
0.8328200471752705,-3.461643127086072,3.3104949246722226,2.1679962707508538
0.9993840566103245,-4.26729344997239,4.11660214940613,2.6015955249010245
1.1659480660453787,-5.110068250460962,4.958627875887791,3.0351947790511953
1.3325120754804327,-5.986897356079626,5.834972914579343,3.468794033201366
1.4990760849154867,-6.891979670649537,6.738813905188828,3.902393287351537
1.665640094350541,-7.815751164536818,7.661370710020813,4.3359925415017075
1.832204103785595,-8.743534471916849,8.586410565446679,4.769591795651879
1.998768113220649,-9.653799340158454,9.49358288631439,5.203191049802049
2.165332122655703,-10.516313041471868,10.351849983072235,5.636790303952219
2.3318961320907574,-11.295108062068262,11.150784257356193,6.070389558102391
2.498460141525811,-12.146570755133476,12.011924706659505,6.503988812252562
2.6650241509608654,-13.178155203681587,13.044430082537698,6.937588066402732
2.8315881603959197,-14.400098954437789,14.26650288614595,7.371187320552902
2.9981521698309734,-15.80794527415977,15.671736437059115,7.804786574703074
3.1647161792660277,-17.376824394348905,17.234835318881032,8.238385828853245
3.331280188701082,-19.05827504269692,18.908661162688322,8.671985083003415
3.4978441981361357,-20.785103045036877,20.62673643958268,9.105584337153585
3.66440820757119,-22.481961450482306,22.315395376908537,9.539183591303757
3.830972217006244,-24.076942140025867,23.89899423976873,9.972782845453928
3.997536226441298,-25.48175372429099,25.3044193136276,10.406382099604098
4.164100235876353,-26.69300145619394,26.518080493739184,10.839981353754268
4.330664245311406,-27.731813310312468,27.5590272642757,11.273580607904439
4.49722825474646,-28.617372695574964,28.44631695128192,11.70717986205461
4.663792264181515,-29.366360054902785,29.197114179897994,12.140779116204781
4.830356273616569,-29.993841926421638,29.826110743046286,12.574378370354951
4.996920283051622,-30.51281885644138,30.346349984082618,13.007977624505124
5.163484292486677,-30.934510933769594,30.769143132022137,13.441576878655294
5.330048301921731,-31.269043671240976,31.106020034057618,13.875176132805464
5.496612311356785,-31.54246342016837,31.38845171313585,14.308775386955634
5.663176320791839,-31.820042586605013,31.666931718155862,14.742374641105805
5.829740330226893,-32.11181123343409,31.95931716016522,15.175973895255977
5.996304339661947,-32.423380059957836,32.2715554959873,15.609573149406147
6.1628683490970015,-32.76128537734551,32.61043459972553,16.04317240355632
6.329432358532055,-33.13360945095753,32.984212447739296,16.47677165770649
6.495996367967109,-33.550848757172474,33.40325354067894,16.91037091185666
6.662560377402164,-34.02722455182939,33.88224950142118,17.34397016600683
6.829124386837218,-34.58282413520023,34.441421153149186,17.777569420157
6.995688396272271,-35.247924714767464,35.11280954163753,18.21116867430717
7.162252405707326,-36.07224723938898,35.955311314726686,18.64476792845734
7.32881641514238,-37.19116586046883,37.08462865806667,19.078367182607515
7.495380424577434,-38.69762340425242,38.59604331833097,19.511966436757685
7.661944434012488,-40.62587093424057,40.52207804167968,19.945565690907856
7.828508443447542,-42.95936924747665,42.844164066457516,20.379164945058026
7.995072452882596,-45.60989039430472,45.47560881667671,20.812764199208196
8.16163646231765,-48.42197454482346,48.2636475990877,21.246363453358367
8.328200471752705,-51.20945594033113,51.030346130470306,21.679962707508537
8.494764481187758,-53.805265916742,53.59332596515175,22.113561961658707
8.661328490622813,-55.981028464756115,55.77492153327661,22.547161215808877
8.827892500057867,-57.75011243712721,57.55665841990887,22.98076046995905
8.99445650949292,-59.21381034009575,59.02820715553309,23.41435972410922
9.161020518927975,-60.440751683314154,60.26141124815362,23.847958978259392
9.32758452836303,-61.47828776600994,61.3030533527251,24.281558232409562
9.494148537798083,-62.359782435659476,62.18749007812442,24.715157486559733
9.660712547233137,-63.108394546163126,62.93801589743397,25.148756740709903
9.827276556668192,-63.73960559141786,63.571524497672634,25.582355994860073
9.993840566103245,-64.27560407069078,64.1573928684339,26.015955249010247
10.1604045755383,-65.05642747731783,64.95418531817366,26.449554503160417
10.326968584973354,-66.24422351064437,66.14211057904859,26.883153757310588
10.493532594408407,-67.83848865510828,67.73332094539835,27.316753011460758
10.660096603843462,-69.81326593150204,69.70131573362951,27.75035226561093
10.826660613278516,-72.11499500166808,71.99276452042668,28.1839515197611
10.99322462271357,-74.66587733534087,74.5320655433157,28.61755077391127
11.159788632148624,-77.37218592475331,77.22555649859852,29.05115002806144
11.326352641583679,-80.13727614967618,79.97683432023136,29.48474928221161
11.492916651018731,-82.85487227876204,82.665006571549,29.918348536361783
11.659480660453786,-85.32300744456353,85.13663045461387,30.351947790511954
11.82604466988884,-87.54750279002991,87.36580214087682,30.785547044662124
11.992608679323894,-89.57244248849908,89.39616946795115,31.219146298812294
12.159172688758948,-91.43342550258372,91.26056536224185,31.652745552962465
12.325736698194003,-93.15845037184624,92.98909951178238,32.08634480711264
12.492300707629056,-94.76993979779756,94.60207617955773,32.519944061262805
12.65886471706411,-96.28657892498877,96.12083699133825,32.95354331541298
12.825428726499165,-97.72348009927057,97.55959559435179,33.387142569563146
12.991992735934218,-99.09329603171274,98.93056383736656,33.82074182371332
13.158556745369273,-100.40671395600198,100.24542344066937,34.25434107786349
13.325120754804328,-101.67345303206058,101.5140164501317,34.68794033201366
13.49168476423938,-102.9085343353795,102.74984689674214,35.121539586163834
13.658248773674435,-104.12263302121713,103.96611237101723,35.555138840314
13.82481278310949,-105.32431147985481,105.16869656886524,35.988738094464175
13.991376792544543,-106.521296740815,106.36638668461522,36.42233734861434
14.157940801979597,-107.72075192399316,107.56660548336382,36.855936602764515
14.324504811414652,-108.92947853941438,108.77606690450807,37.28953585691468
14.491068820849705,-110.15407642429645,110.00135496019517,37.723135111064856
14.65763283028476,-111.40108420160581,111.24927694350612,38.15673436521503
14.824196839719814,-112.6771062007397,112.5269449804902,38.5903336193652
14.990760849154867,-113.98893027793208,113.83988757306555,39.02393287351537
15.157324858589922,-115.34363969639655,115.19546862305333,39.45753212766554
15.323888868024977,-116.74872101964077,116.6002482209432,39.89113138181571
15.49045287746003,-118.19912481948776,118.0455472210596,40.32473063596588
15.657016886895084,-119.66272512579084,119.50922009499442,40.75832989011605
15.823580896330139,-121.14005362521068,120.98670679553057,41.19192914426622
15.990144905765192,-122.63410876860097,122.48094943340593,41.62552839841639
16.156708915200248,-124.14806274780481,123.99652058996494,42.059127652566566
16.3232729246353,-125.6852736367107,125.53441736876769,42.49272690671673
16.489836934070354,-127.24931946480976,127.09782612038494,42.92632616086691
16.65640094350541,-128.8440485118411,128.6933762082807,43.359925415017074
16.822964952940463,-130.4733927724982,130.32389091348344,43.79352466916725
16.989528962375516,-132.1417561503612,131.99219387889386,44.227123923317414
17.156092971810573,-133.8535457339073,133.70495315274334,44.66072317746759
17.322656981245625,-135.6136908596891,135.46550824399947,45.094322431617755
17.48922099068068,-137.41944941326324,137.25628181441613,45.52792168576793
17.655785000115735,-139.17513230107554,139.00934905650988,45.9615209399181
17.822349009550788,-140.8529093780548,140.68788647152655,46.39512019406827
17.98891301898584,-142.45659130048006,142.29221135905723,46.82871944821844
18.155477028420897,-143.99029210579627,143.826086129618,47.26231870236861
18.32204103785595,-145.45820632752816,145.29477809094934,47.695917956518784
18.488605047291003,-146.86474258856143,146.7019514387134,48.12951721066895
18.65516905672606,-148.21420966977786,148.05168095696843,48.563116464819124
18.821733066161112,-149.5110244593871,149.34888433471417,48.9967157189693
18.988297075596165,-150.75942703934533,150.59776534598868,49.430314973119465
19.15486108503122,-151.96368705897814,151.8035393153983,49.86391422726964
19.321425094466274,-153.13749733445795,152.989625209675,50.297513481419806
19.487989103901327,-154.35898615484012,154.20855989874477,50.73111273556998
19.654553113336384,-155.61783835923725,155.4614457406838,51.164711989720146
19.821117122771437,-156.8701593887344,156.706891934905,51.59831124387032
19.98768113220649,-158.06314128698133,157.89255664539715,52.031910498020494
20.154245141641546,-159.1424941018387,158.96550858828968,52.46550975217066
20.3208091510766,-160.06168248405308,159.8805545576127,52.899109006320835
20.487373160511652,-160.79030991422385,160.60767377082473,53.332708260471
20.65393716994671,-161.31778811642653,161.14539499323539,53.766307514621175
20.82050117938176,-161.75299730585056,161.62055001644728,54.19990676877134
20.987065188816814,-162.3609064753636,162.22722934583777,54.633506022921516
21.15362919825187,-163.13472996667716,162.99911175873544,55.06710527707168
21.320193207686923,-164.05872017491964,163.92137948143824,55.50070453122186
21.486757217121976,-165.12105454760226,164.98275379062943,55.93430378537203
21.653321226557033,-166.31309513130847,166.174050614639,56.3679030395222
21.819885235992086,-167.62799804869047,167.48807389960905,56.80150229367237
21.98644924542714,-169.06001702004906,168.92007186489113,57.23510154782254
22.153013254862195,-170.6041847189941,170.46286750781155,57.66870080197271
22.319577264297248,-172.2553550413701,172.10405247059978,58.10230005612288
22.4861412737323,-173.93646424468085,173.77660452845782,58.53589931027305
22.652705283167357,-175.57702941499213,175.41731517526682,58.96949856442322
22.81926929260241,-177.18214666170635,177.02303229728602,59.40309781857339
22.985833302037463,-178.75642391692756,178.59862772623134,59.83669707272357
23.15239731147252,-180.30397912400966,180.14593110793206,60.27029632687373
23.318961320907572,-181.82861915621973,181.67075876417934,60.70389558102391
23.485525330342625,-183.33373449685388,183.17674411086287,61.137494835174074
23.65208933977768,-184.82238201450002,184.66548082217602,61.57109408932425
23.818653349212735,-186.2973599377064,186.14082495017846,62.004693343474415
23.985217358647787,-187.76118887270604,187.6046755080591,62.43829259762459
24.151781368082844,-189.2161252997735,189.0577972751214,62.87189185177476
24.318345377517897,-190.64465587292034,190.48379481436373,63.30549110592493
24.48490938695295,-192.0281296275944,191.86707844434562,63.7390903600751
24.651473396388006,-193.3666468134663,193.20572909572635,64.17268961422528
24.81803740582306,-194.66057843444077,194.49976732336648,64.60628886837544
24.984601415258112,-195.91050277540063,195.74967102685028,65.03988812252561
25.15116542469317,-197.11729744267862,196.95641216273353,65.47348737667578
25.31772943412822,-198.281963132454,198.121725246781,65.90708663082596
25.484293443563274,-199.40546678314317,199.24464837999943,66.34068588497612
25.65085745299833,-200.4891598273731,200.32881722381924,66.77428513912629
25.817421462433384,-201.53419734422533,201.37445865500032,67.20788439327647
25.983985471868436,-202.5419279367152,202.38189744050544,67.64148364742664
26.150549481303493,-203.5137070276687,203.35179647083964,68.0750829015768
26.317113490738546,-204.43465140227426,204.2713433444616,68.50868215572697
26.4836775001736,-205.29405761606156,205.13205597893744,68.94228140987715
26.650241509608655,-206.10268516752978,205.9417765488726,69.37588066402732
26.816805519043708,-206.86985070216548,206.70988363390614,69.80947991817749
26.98336952847876,-207.6037785765376,207.44469151306453,70.24307917232767
27.149933537913817,-208.31196476097844,208.1537376264959,70.67667842647784
27.31649754734887,-209.00150236229763,208.84406786911478,71.110277680628
27.483061556783923,-209.67939759968516,209.52254361889788,71.54387693477817
27.64962556621898,-210.35291155178322,210.19736926402703,71.97747618892835
27.816189575654032,-211.0300018779092,210.8755679182291,72.41107544307852
27.982753585089085,-211.71986600260618,211.56677581994472,72.84467469722868
28.149317594524142,-212.433778002544,212.28245329175047,73.27827395137886
28.315881603959195,-213.19126486880643,213.0463162280972,73.71187320552903
28.482445613394248,-214.03657327950035,213.89335706908457,74.1454724596792
28.649009622829304,-214.98846107780707,214.84688235067526,74.57907171382936
28.815573632264357,-216.06354256388803,215.92462398769385,75.01267096797955
28.98213764169941,-217.28069511043847,217.14475514196508,75.44627022212971
29.148701651134466,-218.66199772507196,218.52867098446373,75.87986947627988
29.31526566056952,-220.23207052945335,220.10177414222434,76.31346873043006
29.481829670004572,-222.01840742739907,221.89211099899921,76.74706798458023
29.64839367943963,-224.0497691354881,223.9265431701719,77.1806672387304
29.81495768887468,-226.3526813828204,226.2206543187461,77.61426649288056
29.981521698309734,-228.85399020421102,228.70781441288406,78.04786574703074
30.14808570774479,-231.42249903938253,231.26092967419677,78.48146500118091
30.314649717179844,-233.92388997890416,233.74644019284307,78.91506425533107
30.481213726614897,-236.2164321037349,236.02536869983535,79.34866350948124
30.647777736049953,-238.18395372224742,237.98481798676937,79.78226276363142
30.814341745485006,-239.75958229320494,239.55894121526077,80.21586201778159
30.98090575492006,-240.9298986523814,240.77528129207883,80.64946127193176
31.147469764355115,-242.22758175774726,242.15755002964568,81.08306052608194
31.314033773790168,-244.2720486976413,244.13911983113863,81.5166597802321
31.48059778322522,-246.51564337835129,246.34596002131218,81.95025903438227
31.647161792660278,-248.61841139377003,248.43554520871578,82.38385828853244
31.81372580209533,-250.45518281500773,250.2700805162167,82.81745754268262
31.980289811530383,-252.01420597190213,251.83381487170186,83.25105679683278
32.14685382096544,-253.32686974543503,253.15014196928612,83.68465605098295
32.313417830400496,-254.43372023792224,254.26087644494814,84.11825530513313
32.479981839835546,-255.37347762320084,255.20345487596728,84.5518545592833
32.6465458492706,-256.1772714860774,256.0103140900294,84.98545381343347
32.81310985870566,-256.87110756051504,256.704980873997,85.41905306758363
32.97967386814071,-257.4751589151809,257.3114607781235,85.85265232173381
33.146237877575764,-258.0052461385863,257.7204478276506,86.28625157588398
