s_abs,Reference κ(s) integral,Polyline-κ baseline,Chord–Sagitta baseline (const κ)
0.0,0.0,0.0,0.0
0.11497903669224255,0.32227961312829967,-0.23724691771390807,-0.8673760450163759
0.2299580733844851,0.664940550721817,-0.580077867048005,-1.7347520900327518
0.34493711007672767,1.0298043925274156,-0.9437150714081903,-2.602128135049128
0.4599161467689702,1.418830813807415,-1.3341617521071092,-3.4695041800655035
0.5748951834612127,1.8342043789290239,-1.7496993881537117,-4.336880225081879
0.6898742201534553,2.2792589067288342,-2.1950756211405067,-5.204256270098256
0.8048532568456979,2.7559560665816605,-2.6699751426620666,-6.071632315114631
0.9198322935379404,3.267913750012513,-3.186092672594936,-6.939008360131007
1.034811330230183,3.818768985523091,-3.735984431204487,-7.806384405147383
1.1497903669224254,4.411996396382728,-4.328218580125992,-8.673760450163758
1.264769403614668,5.051684905305146,-4.968360879305655,-9.541136495180135
1.3797484403069107,5.7428549970787985,-5.663140379897765,-10.408512540196512
1.4947274769991532,6.489047439647013,-6.406441980663016,-11.275888585212886
1.6097065136913957,7.295626871437397,-7.215262642585251,-12.143264630229263
1.7246855503836382,8.166208949958925,-8.08553205194658,-13.010640675245638
1.8396645870758808,9.104297712254969,-9.023627793963357,-13.878016720262014
1.9546436237681233,10.111698340607647,-10.032640737001202,-14.74539276527839
2.069622660460366,11.1882207721891,-11.107666938977454,-15.612768810294765
2.1846016971526083,12.328819710857365,-12.24691571299577,-16.480144855311142
2.299580733844851,13.523232334778275,-13.43849843103492,-17.347520900327517
2.4145597705370934,14.753365629087556,-14.666127136719812,-18.214896945343895
2.529538807229336,15.990875985192199,-15.899302374864156,-19.08227299036027
2.6445178439215784,17.195711327315305,-17.097948521503504,-19.949649035376645
2.7594968806138214,18.31590241653716,-18.21141793893269,-20.817025080393023
2.874475917306064,19.2910682066381,-19.179200226025674,-21.684401125409398
2.9894549539983064,20.057221358339547,-19.9596428613616,-22.551777170425773
3.104433990690549,20.726934357307556,-20.640121501748915,-23.419153215442147
3.2194130273827914,21.40149983888316,-21.314679052109994,-24.286529260458526
3.334392064075034,22.07760834656957,-21.990096753354923,-25.1539053054749
3.4493711007672765,22.751422724794438,-22.66282032490434,-26.021281350491275
3.564350137459519,23.41863015130469,-23.330299509130825,-26.888657395507654
3.6793291741517615,24.074356736406198,-23.984981527089115,-27.75603344052403
3.794308210844004,24.713343646219645,-24.623277760568207,-28.623409485540403
3.9092872475362466,25.32988151168704,-25.239141508513583,-29.49078553055678
4.0242662842284895,25.917947759309822,-25.826540981176006,-30.358161575573156
4.139245320920732,26.471333568844294,-26.379032210762126,-31.22553762058953
4.254224357612975,26.983790237206783,-26.890757953485224,-32.092913665605906
4.369203394305217,27.4490200687836,-27.355170450626904,-32.960289710622284
4.48418243099746,27.86119618603215,-27.766860059181305,-33.82766575563866
4.599161467689702,28.214771953844018,-28.121497540943373,-34.695041800655034
4.714140504381945,28.528719950959466,-28.448315389472818,-35.56241784567141
4.829119541074187,28.89165474651385,-28.811657779250158,-36.42979389068779
4.94409857776643,29.311935668446594,-29.23137579473913,-37.29716993570416
5.059077614458672,29.788192513801107,-29.707802920470034,-38.16454598072054
5.174056651150915,30.31827693021778,-30.237704084352917,-39.03192202573692
5.289035687843157,30.89900128134412,-30.817429385498322,-39.89929807075329
5.4040147245354,31.52643037413912,-31.44436306938592,-40.76667411576967
5.518993761227643,32.19600347725706,-32.11389842893157,-41.634050160786046
5.633972797919885,32.902624777587626,-32.819078062802525,-42.50142620580242
5.748951834612128,33.640601322385244,-33.556913192524725,-43.368802250818796
5.86393087130437,34.404194335165144,-34.31933409051795,-44.23617829583517
5.978909907996613,35.1873897732414,-35.1020745290415,-45.103554340851545
6.093888944688855,35.98439053513603,-35.8983282496788,-45.97093038586792
6.208867981381098,36.78966303281018,-36.703627085747115,-46.838306430884295
6.32384701807334,37.602840962828644,-37.51701527368345,-47.70568247590067
6.438826054765583,38.42618558200918,-38.340470011767394,-48.57305852091705
6.553805091457825,39.26127589572921,-39.17588032192597,-49.44043456593342
6.668784128150068,40.10959161211559,-40.02441144151415,-50.3078106109498
6.78376316484231,40.972568356017426,-40.88737171050234,-51.17518665596618
6.898742201534553,41.851548625419085,-41.76688618091971,-52.04256270098255
7.013721238226795,42.74778246213071,-42.66260972222535,-52.90993874599893
7.128700274919038,43.66261858954257,-43.57866135373527,-53.77731479101531
7.24367931161128,44.59714734962687,-44.51213315916286,-54.64469083603168
7.358658348303523,45.55267825854444,-45.46889255960758,-55.51206688104806
7.473637384995766,46.5302302309796,-46.44634106083504,-56.379442926064435
7.588616421688008,47.53094383115699,-47.4460823114794,-57.246818971080806
7.703595458380251,48.55591540683337,-48.472416284859825,-58.114195016097185
7.818574495072493,49.6060827564534,-49.52289123471871,-58.98157106111356
7.933553531764736,50.67905813945851,-50.58946739980913,-59.848947106129934
8.048532568456979,51.73758195731041,-51.646896393476716,-60.71632315114631
8.163511605149221,52.773027077658384,-52.68244886133201,-61.58369919616269
8.278490641841463,53.78812152762941,-53.69858678536867,-62.45107524117906
8.393469678533705,54.78545142628328,-54.69692530959409,-63.31845128619544
8.50844871522595,55.767518218803765,-55.67909724163599,-64.18582733121181
8.623427751918191,56.7367555744209,-56.64842344638457,-65.0532033762282
8.738406788610433,57.69554625914109,-57.607322765287755,-65.92057942124457
8.853385825302675,58.646229161411675,-58.55811786325627,-66.78795546626094
8.96836486199492,59.591160079660206,-59.50311521505334,-67.65533151127732
9.083343898687161,60.532678779002076,-60.444698667991446,-68.5227075562937
9.198322935379403,61.473149171335166,-61.38623556375173,-69.39008360131007
9.313301972071647,62.41498007018386,-62.32905984239349,-70.25745964632645
9.42828100876389,63.360650427667785,-63.274632088221395,-71.12483569134282
9.543260045456131,64.31275579279799,-64.22629826654577,-71.9922117363592
9.658239082148373,65.27397446002858,-65.18854628494299,-72.85958778137558
9.773218118840617,66.25447234915417,-66.17368742193021,-73.72696382639195
9.88819715553286,67.27566253306264,-67.19354739622038,-74.59433987140832
10.003176192225101,68.33704311996703,-68.25474826133674,-75.46171591642471
10.118155228917344,69.43644285760449,-69.35454341131171,-76.32909196144108
10.233134265609587,70.57128455736509,-70.48784192017501,-77.19646800645745
10.34811330230183,71.73834983094919,-71.65577830833273,-78.06384405147384
10.463092338994072,72.93423504187955,-72.84979132681953,-78.93122009649021
10.578071375686314,74.1548860861304,-74.07119517069293,-79.79859614150658
10.693050412378557,75.3961699935622,-75.3105190636976,-80.66597218652296
10.8080294490708,76.65346125229296,-76.56839974189184,-81.53334823153934
10.923008485763042,77.92213888029373,-77.83604348817636,-82.4007242765557
11.037987522455285,79.19734918050226,-79.10971950157683,-83.26810032157209
11.152966559147528,80.47430723487052,-80.3878611459733,-84.13547636658846
11.26794559583977,81.74828062441004,-81.66040908022602,-85.00285241160483
11.382924632532012,83.01472814634678,-82.92521939625406,-85.8702284566212
11.497903669224256,84.26650883831087,-84.1737620862028,-86.73760450163759
11.612882705916498,85.4836272190545,-85.3913105095237,-87.60498054665396
11.72786174260874,86.66565736555451,-86.57426306762417,-88.47235659167033
11.842840779300982,87.81586022494048,-87.72531117368305,-89.33973263668672
11.957819815993226,88.93721211839528,-88.84728315546417,-90.20710868170309
12.072798852685468,90.03247074799037,-89.94284577568804,-91.07448472671946
12.18777788937771,91.10426163816764,-91.01451502856291,-91.94186077173585
12.302756926069952,92.15502404057244,-92.0646671977271,-92.80923681675222
12.417735962762196,93.18704537956457,-93.09715418211509,-93.67661286176859
12.532714999454438,94.20246757327969,-94.11439117505572,-94.54398890678497
12.64769403614668,95.20326730024317,-95.11399933837802,-95.41136495180135
12.762673072838922,96.19143508543672,-96.10248722785157,-96.27874099681772
12.877652109531166,97.16877868968157,-97.08109873169907,-97.1461170418341
12.992631146223408,98.1370133384622,-98.04816166420169,-98.01349308685047
13.10761018291565,99.0978546923012,-99.01053863358624,-98.88086913186685
13.222589219607894,100.0528689388054,-99.96447803256747,-99.74824517688323
13.337568256300136,101.0036236975476,-100.91564651893304,-100.6156212218996
13.452547292992378,101.94422566445452,-101.85444948265388,-101.48299726691597
13.56752632968462,102.8691742467422,-102.78051301883232,-102.35037331193236
13.682505366376864,103.77967849526134,-103.6903335548498,-103.21774935694873
13.797484403069106,104.6770402214888,-104.5885063602892,-104.0851254019651
13.912463439761348,105.56241494784987,-105.47343433392791,-104.95250144698149
14.02744247645359,106.43707090186047,-106.3488352042188,-105.81987749199786
14.142421513145834,107.30211175896677,-107.21377621116348,-106.68725353701423
14.257400549838076,108.15877490426152,-108.07027082018276,-107.55462958203061
14.372379586530318,109.00816257527784,-108.92051849998057,-108.42200562704699
14.48735862322256,109.85145852665227,-109.76322339840499,-109.28938167206336
14.602337659914804,110.68978820333628,-110.60234406864197,-110.15675771707974
14.717316696607046,111.52430614678866,-111.43640131145271,-111.02413376209611
14.832295733299288,112.35616352318559,-112.26893627063838,-111.89150980711248
14.947274769991532,113.18652150627217,-113.09902399571278,-112.75888585212887
15.062253806683774,114.01656071089533,-113.92957664469418,-113.62626189714524
15.177232843376016,114.84748227986408,-114.76042945601982,-114.49363794216161
15.292211880068258,115.68051031825328,-115.59311579975352,-115.361013987178
15.407190916760502,116.51131049311965,-116.42255928569206,-116.22839003219437
15.522169953452744,117.33217903462752,-117.24399758115548,-117.09576607721074
15.637148990144986,118.14314746647993,-118.05407486837454,-117.96314212222713
15.752128026837228,118.94432882261155,-118.85647100890979,-118.8305181672435
15.867107063529472,119.73593965455132,-119.64687275039572,-119.69789421225987
15.982086100221714,120.51813339720019,-120.42974387493958,-120.56527025727625
16.097065136913958,121.2911454932096,-121.2032304558007,-121.43264630229262
16.2120441736062,122.05523045925345,-121.96617517007029,-122.300022347309
16.327023210298442,122.81062815508486,-122.72207091639225,-123.16739839232538
16.442002246990683,123.55761886806981,-123.4700100366732,-124.03477443734175
16.556981283682926,124.29652378146503,-124.20831354420363,-124.90215048235812
16.67196032037517,125.02766278182158,-124.93901249437927,-125.76952652737451
16.78693935706741,125.75137647174155,-125.6625609027112,-126.63690257239088
16.901918393759654,126.46802134336127,-126.37980700917429,-127.50427861740725
17.0168974304519,127.17798190535673,-127.09024313409601,-128.37165466242362
17.13187646714414,127.88167089143927,-127.79415359866682,-129.23903070744
17.246855503836382,128.58597271594957,-128.50902627876042,-130.1064067524564
17.361834540528626,129.364870772642,-129.28926019279274,-130.97378279747275
17.476813577220867,130.2360903845426,-130.15964176185247,-131.84115884248914
17.59179261391311,131.19315012078772,-131.11568308768605,-132.70853488750552
17.70677165060535,132.22752302248128,-132.14892353629924,-133.57591093252188
17.821750687297595,133.3288876130243,-133.24907404533118,-134.44328697753826
17.93672972398984,134.48550221597117,-134.40431443493492,-135.31066302255465
18.05170876068208,135.68467940727916,-135.601678144388,-136.178039067571
18.166687797374323,136.91332383388539,-136.82750325854263,-137.0454151125874
18.281666834066566,138.15848721907193,-138.07195155764248,-137.91279115760378
18.396645870758807,139.4078671693411,-139.320608502191,-138.78016720262013
18.51162490745105,140.65013151993557,-140.56101266688646,-139.64754324763652
18.626603944143294,141.8752893155389,-141.78547023499505,-140.5149192926529
18.741582980835535,143.07487916263133,-142.98385682959227,-141.38229533766926
18.85656201752778,144.2419341678859,-144.15064396565856,-142.24967138268565
18.97154105422002,145.37103986837278,-145.27919473629387,-143.11704742770203
19.086520090912263,146.4582875844552,-146.36704354686995,-143.9844234727184
19.201499127604507,147.52133550436497,-147.4487006683785,-144.85179951773478
19.316478164296747,148.6846402619807,-148.60582560833694,-145.71917556275116
19.43145720098899,149.92932172485192,-149.84764855439806,-146.58655160776752
19.546436237681235,151.2119632910409,-151.12549265996694,-147.4539276527839
19.661415274373475,152.49643851498365,-152.40990824648574,-148.3213036978003
19.77639431106572,153.7553728413511,-153.66252869421325,-149.18867974281665
19.89137334775796,154.96877540239814,-154.87694481126888,-150.05605578783303
20.006352384450203,156.12463685953637,-156.03108654907277,-150.92343183284942
20.121331421142447,157.21587411741487,-157.12091284427777,-151.79080787786577
20.236310457834687,158.2397720814256,-158.14673627198292,-152.65818392288216
20.35128949452693,159.19575855750801,-159.100142136591,-153.52555996789854
20.466268531219175,160.08671845070882,-159.99542182196078,-154.3929360129149
20.581247567911415,160.91462169124313,-160.82227817045197,-155.2603120579313
20.69622660460366,161.68409343805482,-161.59121742164544,-156.12768810294767
20.811205641295903,162.3991555764603,-162.30467004914405,-156.99506414796403
20.926184677988143,163.0636537477428,-162.9715194383113,-157.86244019298042
21.041163714680387,163.68152369619804,-163.59214688694618,-158.7298162379968
21.156142751372627,164.25745884612888,-164.16523521919584,-159.59719228301316
21.27112178806487,164.79364807738511,-164.70329669991287,-160.46456832802954
21.386100824757115,165.29455140526295,-165.20449510796658,-161.33194437304593
21.501079861449355,165.76294868984957,-165.67206013182582,-162.19932041806229
21.6160588981416,166.20145146174693,-166.1111679631697,-163.06669646307867
21.731037934833843,166.61252022008517,-166.52327909481346,-163.93407250809506
21.846016971526083,166.9984554653397,-166.90977149251162,-164.8014485531114
21.960996008218327,167.36139403187317,-167.2718245882613,-165.6688245981278
22.07597504491057,167.70330955204759,-167.6145057562057,-166.53620064314418
22.19095408160281,168.0260160567636,-167.93774843603728,-167.40357668816054
22.305933118295055,168.33056114984893,-168.2402616919109,-168.27095273317693
22.420912154987295,168.61868445569473,-168.53182615733112,-169.13832877819328
22.53589119167954,168.89167492727273,-168.8009815193362,-170.00570482320967
22.650870228371783,169.15044400425617,-169.06449966781742,-170.87308086822605
22.765849265064023,169.3961661558206,-169.30556181303166,-171.7404569132424
22.880828301756267,169.63003946668374,-169.4795079129408,-172.6078329582588
