s_abs,Reference κ(s) integral,Polyline-κ baseline,Chord–Sagitta baseline (const κ)
0.0,0.0,0.0,0.0
0.11065520598773572,0.18560430064332764,-0.1357533281403407,-0.6169323282247049
0.22131041197547144,0.3846244588695135,-0.33533124772932493,-1.2338646564494098
0.33196561796320717,0.5986493963864459,-0.5495707230846041,-1.8507969846741146
0.4426208239509429,0.829470083599905,-0.7803337102178914,-2.4677293128988196
0.5532760299386786,1.0791001933899955,-1.029868533481159,-3.0846616411235246
0.6639312359264143,1.3497970332092035,-1.3009708575758576,-3.701593969348229
0.77458644191415,1.644082060677402,-1.596402968749284,-4.318526297572935
0.8852416479018858,1.9653015394727398,-1.9165204549804014,-4.935458625797639
0.9958968538896215,2.3169052451002963,-2.2708046505600255,-5.552390954022344
1.1065520598773573,2.703141905523826,-2.6553342755028817,-6.169323282247049
1.217207265865093,3.12867218980272,-3.081679389980352,-6.786255610471754
1.3278624718528287,3.5993806517816194,-3.5544236583445135,-7.403187938696458
1.4385176778405644,4.121814141487651,-4.077140768468491,-8.020120266921163
1.5491728838283,4.703102437796918,-4.658389142663531,-8.63705259514587
1.6598280898160358,5.352903664274345,-5.31037205260807,-9.253984923370574
1.7704832958037715,6.079725353905377,-6.037682500701943,-9.870917251595278
1.8811385017915072,6.8937283405143415,-6.853131515699601,-10.487849579819983
1.991793707779243,7.804904655785759,-7.763731089091341,-11.104781908044687
2.102448913766979,8.820533917962267,-8.781311317114447,-11.721714236269394
2.2131041197547145,9.94351956315376,-9.905007877779404,-12.338646564494098
2.3237593257424503,11.165905862705067,-11.122867020048947,-12.955578892718803
2.434414531730186,12.463629123408511,-12.415583724129663,-13.572511220943507
2.5450697377179217,13.786603813450046,-13.728099595700114,-14.189443549168212
2.6557249437056574,15.053846343854074,-14.983698280416622,-14.806375877392917
2.766380149693393,16.1566796298445,-16.072582481085806,-15.423308205617623
2.877035355681129,16.976277983030723,-16.894061458297635,-16.040240533842326
2.9876905616688645,17.56344395995484,-17.51665513176481,-16.657172862067032
3.0983457676566,18.176229914371852,-18.12955332320534,-17.27410519029174
3.209000973644336,18.822870422103176,-18.775996652273733,-17.89103751851644
3.3196561796320716,19.50284179927609,-19.45625092878653,-18.507969846741148
3.4303113856198073,20.215330431222267,-20.168369001081285,-19.12490217496585
3.540966591607543,20.95911004704005,-20.91191403444227,-19.741834503190557
3.6516217975952787,21.73260854456618,-21.68534282889673,-20.358766831415263
3.7622770035830144,22.53393691257677,-22.486446289824404,-20.975699159639966
3.87293220957075,23.360867994892672,-23.313034844741193,-21.592631487864672
3.983587415558486,24.210856903687542,-24.162672354126457,-22.209563816089375
4.094242621546222,25.081071410955147,-25.032514175563996,-22.82649614431408
4.204897827533958,25.96843184332333,-25.919474167602377,-23.443428472538788
4.315553033521693,26.86965947185954,-26.82026591177059,-24.06036080076349
4.426208239509429,27.781331882476028,-27.73194742198125,-24.677293128988197
4.536863445497165,28.707092288993273,-28.666953876362243,-25.2942254572129
4.6475186514849005,29.71158196366838,-29.672762070617953,-25.911157785437606
4.758173857472636,30.80921913449814,-30.769847575518295,-26.528090113662312
4.868829063460372,31.996602184490264,-31.95675296309096,-27.145022441887015
4.979484269448108,33.26984940486546,-33.22956018239972,-27.76195477011172
5.090139475435843,34.62426693176173,-34.58279737591879,-28.378887098336424
5.200794681423579,36.05430390859858,-36.012828932607924,-28.99581942656113
5.311449887411315,37.55374517996776,-37.51129076493722,-29.612751754785833
5.4221050933990504,39.11585724232255,-39.07182313271266,-30.22968408301054
5.532760299386786,40.73257892540709,-40.68844165572714,-30.846616411235246
5.643415505374522,42.39579272250779,-42.35044344080602,-31.46354873945995
5.754070711362258,44.096387939424126,-44.048031537389306,-32.08048106768465
5.864725917349993,45.825217705324434,-45.77776890440032,-32.69741339590936
5.975381123337729,47.57280953391683,-47.52442715851082,-33.314345724134064
6.086036329325465,49.32974222697446,-49.27836111619854,-33.93127805235877
6.1966915353132,51.074079563330734,-51.00618827074836,-34.54821038058348
6.307346741300936,52.70073051744659,-52.63394827918228,-35.165142708808176
6.418001947288672,54.20088679440971,-54.13739414818389,-35.78207503703288
6.5286571532764075,55.589297460642996,-55.52521733158697,-36.39900736525759
6.639312359264143,56.87943661843398,-56.817839508202795,-37.015939693482295
6.749967565251879,58.08226173556968,-58.02144589184328,-37.632872021707
6.860622771239615,59.20796135726063,-59.14864760945886,-38.2498043499317
6.97127797722735,60.264957194395116,-60.206149780634206,-38.86673667815641
7.081933183215086,61.26120153266306,-61.2036276798639,-39.48366900638111
7.192588389202822,62.20311571514283,-62.146111328874134,-40.10060133460582
7.303243595190557,63.096929532772684,-63.04040780440258,-40.717533662830526
7.413898801178293,63.94804716507946,-63.892333545813415,-41.334465991055225
7.524554007166029,64.76112240655536,-64.70603896905021,-41.95139831927993
7.6352092131537646,65.54075036628835,-65.48586141466393,-42.56833064750464
7.7458644191415,66.29102818591436,-66.2370315246992,-43.185262975729344
7.856519625129236,67.01559053639774,-66.961924465564,-43.80219530395405
7.967174831116972,67.71823600955206,-67.66494420764052,-44.41912763217875
8.077830037104707,68.4059094913799,-68.36104553336767,-45.036059960403456
8.188485243092444,69.1310421247017,-69.0876317846358,-45.65299228862816
8.299140449080179,69.91247701708008,-69.86878822577562,-46.26992461685287
8.409795655067915,70.75179173124596,-70.70975728823043,-46.886856945077575
8.52045086105565,71.65072165066924,-71.60831909647774,-47.503789273302274
8.631106067043387,72.61082267827169,-72.56813157230383,-48.12072160152698
8.741761273031122,73.63319659360086,-73.59051466108708,-48.73765392975169
8.852416479018858,74.71851301342515,-74.67605569739979,-49.35458625797639
8.963071685006593,75.86704087243929,-75.82485153135374,-49.9715185862011
9.07372689099433,77.07848197947791,-77.03643978000206,-50.5884509144258
9.184382096982064,78.35189003106385,-78.30973312267322,-51.205383242650505
9.295037302969801,79.68571920983842,-79.64296003286915,-51.82231557087521
9.405692508957536,81.07741472262715,-81.03361577955454,-52.43924789909992
9.516347714945272,82.52367014007024,-82.47860859392617,-53.056180227324624
9.627002920933007,84.02034061191324,-83.97604087633448,-53.673112555549324
9.737658126920744,85.5624431553929,-85.51835747909594,-54.29004488377403
9.848313332908479,87.14263721777652,-87.0922297635548,-54.906977211998736
9.958968538896215,88.72490364856499,-88.6720926056132,-55.52390954022344
10.06962374488395,90.29513041343967,-90.24146981635147,-56.14084186844815
10.180278950871687,91.85144875224266,-91.79892997281924,-56.75777419667285
10.290934156859421,93.39211394602728,-93.34027627357435,-57.374706524897555
10.401589362847158,94.9155099028617,-94.86301673061055,-57.99163885312226
10.512244568834893,96.42022932154933,-96.36723020152249,-58.60857118134697
10.62289977482263,97.90498671393239,-97.85167030640649,-59.225503509571666
10.733554980810364,99.36865196182177,-99.3151478441897,-59.84243583779637
10.844210186798101,100.81024962011558,-100.75660499559058,-60.45936816602108
10.954865392785836,102.22895616034087,-102.17511376438853,-61.076300494245785
11.065520598773572,103.62409541065266,-103.5698730799872,-61.69323282247049
11.176175804761307,104.99513246075692,-104.94025670966317,-62.31016515069519
11.286831010749044,106.34166631494416,-106.28747444949414,-62.9270974789199
11.397486216736779,107.66336883383237,-107.6107499705748,-63.544029807144604
11.508141422724515,108.96007605885025,-108.90623506964675,-64.1609621353693
11.61879662871225,110.2332661092537,-110.18185185308195,-64.77789446359401
11.729451834699987,111.50579992468472,-111.4573163111546,-65.39482679181872
11.840107040687721,112.78655933167308,-112.73635004384548,-66.01175912004342
11.950762246675458,114.07637342584309,-114.02773129032266,-66.62869144826813
12.061417452663193,115.3760321949945,-115.32626910675617,-67.24562377649283
12.17207265865093,116.68603754659577,-116.6373995706153,-67.86255610471754
12.282727864638664,118.00689676086401,-117.95746528974595,-68.47948843294225
12.3933830706264,119.33880330764163,-119.28969843021349,-69.09642076116695
12.504038276614136,120.68190563168548,-120.63315374236288,-69.71335308939166
12.614693482601872,122.03619443010116,-121.98692356970197,-70.33028541761635
12.725348688589607,123.40144676069049,-123.35254835274014,-70.94721774584106
12.836003894577344,124.77733404425273,-124.7280659195499,-71.56415007406576
12.946659100565078,126.1633773255866,-126.11362113135382,-72.18108240229047
13.057314306552815,127.55896678165763,-127.50982395615281,-72.79801473051518
13.16796951254055,128.9633041187578,-128.9140120818327,-73.41494705873988
13.278624718528286,130.3754745381882,-130.3258208954636,-74.03187938696459
13.389279924516021,131.7944330044281,-131.74434239081526,-74.6488117151893
13.499935130503758,133.21901027159902,-133.16773307129657,-75.265744043414
13.610590336491493,134.63037912992613,-134.5725318735142,-75.88267637163871
13.72124554247923,135.98557540422965,-135.92797225892335,-76.4996086998634
13.831900748466964,137.2892803140964,-137.23260843445033,-77.11654102808811
13.9425559544547,138.5481554162113,-138.4923772382882,-77.73347335631281
14.053211160442435,139.76835180647032,-139.71349614991118,-78.35040568453752
14.163866366430172,140.95560608589062,-140.9012457925374,-78.96733801276223
14.274521572417909,142.11524489425187,-142.0614189762634,-79.58427034098693
14.385176778405643,143.25262526822584,-143.19926167358818,-80.20120266921164
14.49583198439338,144.37276687258327,-144.32072374648698,-80.81813499743635
14.606487190381115,145.48058911854523,-145.42868205260172,-81.43506732566105
14.717142396368851,146.5810313840459,-146.53002813100252,-82.05199965388574
14.827797602356586,147.679136559443,-147.62813524977108,-82.66893198211045
14.938452808344323,148.7800633180487,-148.73071383612344,-83.28586431033516
15.049108014332058,149.88923976280972,-149.84037780701254,-83.90279663855986
15.159763220319794,151.01248096604337,-150.96421132806532,-84.51972896678457
15.270418426307529,152.15612638442454,-152.10882562295697,-85.13666129500928
15.381073632295266,153.327203677279,-153.2809996165864,-85.75359362323398
15.491728838283,154.5336272350376,-154.4882130473749,-86.37052595145869
15.602384044270737,155.78430824523073,-155.7381056406292,-86.9874582796834
15.713039250258472,157.0704784214347,-157.02269700259836,-87.6043906079081
15.823694456246209,158.37810935017137,-158.32872621278685,-88.2213229361328
15.934349662233943,159.70360158400692,-159.65557194552028,-88.8382552643575
16.045004868221678,161.04291519809456,-160.99326373163072,-89.4551875925822
16.155660074209415,162.3915746197477,-162.3399506060836,-90.07211992080691
16.26631528019715,163.74476088045435,-163.69451851090807,-90.68905224903162
16.376970486184888,165.09729964808844,-165.04649758631206,-91.30598457725632
16.48762569217262,166.44379828682037,-166.39174436196512,-91.92291690548103
16.598280898160358,167.77871467970752,-167.72557139476945,-92.53984923370574
16.708936104148094,169.09645155107597,-169.04212682278632,-93.15678156193044
16.81959131013583,170.3914476854343,-170.33698036188082,-93.77371389015515
16.930246516123564,171.65821314134433,-171.60440213739219,-94.39064621837984
17.0409017221113,172.89161395920203,-172.8365336760384,-95.00757854660455
17.151556928099037,174.0867844744769,-174.02988654227013,-95.62451087482926
17.262212134086774,175.23917797257775,-175.18220813124086,-96.24144320305396
17.372867340074507,176.34459267867035,-176.29110211240132,-96.85837553127867
17.483522546062243,177.42300170753768,-177.37095641988236,-97.47530785950337
17.59417775204998,178.49624171051616,-178.44315103156117,-98.09224018772808
17.704832958037716,179.55343119960244,-179.5003153666349,-98.70917251595279
17.81548816402545,180.58423571815405,-180.52904034282184,-99.3261048441775
17.926143370013186,181.57940654156351,-181.52277078456868,-99.9430371724022
18.036798576000923,182.5310391190738,-182.47386187557873,-100.55996950062689
18.14745378198866,183.43311300157072,-183.37586888729678,-101.1769018288516
18.258108987976392,184.2812521210945,-184.223875321352,-101.7938341570763
18.36876419396413,185.07262503432185,-185.01452642787766,-102.41076648530101
18.479419399951865,185.80603648752657,-185.74774100745606,-103.02769881352572
18.590074605939602,186.48178595888052,-186.42411108389626,-103.64463114175042
18.700729811927335,187.1005911846865,-187.04288359317917,-104.26156346997513
18.81138501791507,187.6647638025174,-187.60745298746716,-104.87849579819984
18.92204022390281,188.1767712940642,-188.11976886796165,-105.49542812642454
19.032695429890545,188.6395543778421,-188.58299080347842,-106.11236045464925
19.143350635878278,189.05635898100232,-188.99994891409574,-106.72929278287394
19.254005841866014,189.4327605045956,-189.38247469876646,-107.34622511109865
19.36466104785375,189.80924127879686,-189.75895654236487,-107.96315743932335
19.475316253841488,190.19685196295785,-190.1458932121464,-108.58008976754806
19.58597145982922,190.591903857431,-190.5412305043731,-109.19702209577277
19.696626665816957,190.99125303862624,-190.94008018501566,-109.81395442399747
19.807281871804694,191.3922232878718,-191.3416604366615,-110.43088675222218
19.91793707779243,191.79257709878394,-191.74146177252882,-111.04781908044689
20.028592283780164,192.19047449812246,-192.13817596645418,-111.66475140867159
20.1392474897679,192.5843619924554,-192.53289695031285,-112.2816837368963
20.249902695755637,192.97306408312474,-192.92108207011538,-112.89861606512099
20.360557901743373,193.35559468034316,-193.303746929602,-113.5155483933457
20.471213107731106,193.73115782962134,-193.67906239942465,-114.1324807215704
20.581868313718843,194.09921818621794,-194.04716687063893,-114.74941304979511
20.69252351970658,194.4593544577984,-194.40712516538034,-115.36634537801982
20.803178725694316,194.81124865696634,-194.75913565607468,-115.98327770624452
20.91383393168205,195.1546937823344,-195.10217115633418,-116.60021003446923
21.024489137669786,195.48965942631622,-195.43813009426552,-117.21714236269393
21.135144343657522,195.81606392668573,-195.7631438514544,-117.83407469091864
21.24579954964526,196.13396040123902,-196.08275291739383,-118.45100701914333
21.356454755632996,196.44338925010427,-196.39091183314326,-119.06793934736804
21.46710996162073,196.74453646463368,-196.6913437358032,-119.68487167559275
21.577765167608465,197.03751947457556,-196.98549675199632,-120.30180400381745
21.688420373596202,197.32243818040791,-197.2707286204297,-120.91873633204216
21.79907557958394,197.59954428711214,-197.5473857905782,-121.53566866026686
21.90973078557167,197.86903573285582,-197.8163874905037,-122.15260098849157
22.020385991559408,198.13112228158698,-198.01376732741133,-122.76953331671628
